Wavelength	Transmittance	hex_color	Manufacturer	Name	Filter Number
300	0.0		Omega	380QM50 Bandpass	XF1415/25
301	0.001				
302	0.0				
303	0.0				
304	0.0				
305	0.001				
306	0.0				
307	0.001				
308	0.001				
309	0.002				
310	0.001				
311	0.001				
312	0.006				
313	0.008				
314	0.02				
315	0.041				
316	0.073				
317	0.136				
318	0.227				
319	0.368				
320	0.562				
321	0.842				
322	1.215				
323	1.707				
324	2.297				
325	3.061				
326	3.932				
327	4.952				
328	6.119				
329	7.452				
330	8.903				
331	10.472				
332	12.141				
333	13.874				
334	15.703				
335	17.687				
336	19.478				
337	21.443				
338	23.391				
339	25.365				
340	27.34				
341	29.216				
342	31.076				
343	32.794				
344	34.525				
345	36.278				
346	37.978				
347	39.468				
348	41.0				
349	42.431				
350	43.759				
351	45.045				
352	46.277				
353	47.594				
354	48.65				
355	49.861				
356	50.941				
357	51.806				
358	52.603				
359	53.635				
360	54.471				
361	55.271				
362	55.965				
363	56.725				
364	57.315				
365	57.925				
366	58.454				
367	59.093				
368	59.72				
369	60.207				
370	60.716				
371	61.17				
372	61.655				
373	62.111				
374	62.375				
375	62.673				
376	62.974				
377	63.269				
378	63.764				
379	64.339				
380	64.765				
381	65.258				
382	65.583				
383	65.835				
384	66.163				
385	66.468				
386	66.66				
387	66.858				
388	67.199				
389	67.466				
390	67.648				
391	67.712				
392	67.758				
393	67.707				
394	67.891				
395	67.981				
396	67.776				
397	67.506				
398	67.265				
399	66.902				
400	66.447				
401	66.019				
402	65.54				
403	63.97				
404	55.293				
405	29.606				
406	7.0				
407	1.093				
408	0.199				
409	0.047				
410	0.018				
411	0.005				
412	0.002				
413	0.0				
414	0.003				
415	0.001				
416	0.0				
417	0.0				
418	0.003				
419	0.0				
420	0.0				
421	0.0				
422	0.0				
423	0.0				
424	0.0				
425	0.0				
426	0.001				
427	0.0				
428	0.003				
429	0.0				
430	0.003				
431	0.0				
432	0.0				
433	0.0				
434	0.0				
435	0.0				
436	0.002				
437	0.0				
438	0.0				
439	0.0				
440	0.0				
441	0.002				
442	0.0				
443	0.002				
444	0.0				
445	0.002				
446	0.002				
447	0.001				
448	0.0				
449	0.0				
450	0.0				
451	0.001				
452	0.0				
453	0.001				
454	0.001				
455	0.0				
456	0.002				
457	0.004				
458	0.0				
459	0.0				
460	0.004				
461	0.004				
462	0.0				
463	0.0				
464	0.0				
465	0.0				
466	0.0				
467	0.001				
468	0.0				
469	0.001				
470	0.0				
471	0.0				
472	0.002				
473	0.001				
474	0.0				
475	0.0				
476	0.002				
477	0.002				
478	0.0				
479	0.0				
480	0.0				
481	0.0				
482	0.0				
483	0.001				
484	0.003				
485	0.0				
486	0.0				
487	0.007				
488	0.0				
489	0.0				
490	0.0				
491	0.004				
492	0.0				
493	0.004				
494	0.0				
495	0.0				
496	0.002				
497	0.0				
498	0.002				
499	0.0				
500	0.0				
501	0.003				
502	0.0				
503	0.0				
504	0.004				
505	0.0				
506	0.001				
507	0.0				
508	0.0				
509	0.004				
510	0.001				
511	0.002				
512	0.0				
513	0.0				
514	0.0				
515	0.0				
516	0.0				
517	0.0				
518	0.0				
519	0.0				
520	0.0				
521	0.001				
522	0.0				
523	0.0				
524	0.002				
525	0.0				
526	0.002				
527	0.0				
528	0.0				
529	0.0				
530	0.002				
531	0.001				
532	0.001				
533	0.0				
534	0.0				
535	0.0				
536	0.0				
537	0.0				
538	0.0				
539	0.0				
540	0.0				
541	0.0				
542	0.0				
543	0.001				
544	0.001				
545	0.001				
546	0.001				
547	0.0				
548	0.0				
549	0.0				
550	0.002				
551	0.0				
552	0.0				
553	0.001				
554	0.0				
555	0.002				
556	0.001				
557	0.0				
558	0.0				
559	0.007				
560	0.0				
561	0.003				
562	0.0				
563	0.0				
564	0.001				
565	0.003				
566	0.002				
567	0.003				
568	0.0				
569	0.0				
570	0.0				
571	0.005				
572	0.0				
573	0.0				
574	0.004				
575	0.002				
576	0.0				
577	0.0				
578	0.0				
579	0.0				
580	0.0				
581	0.0				
582	0.0				
583	0.0				
584	0.0				
585	0.002				
586	0.0				
587	0.004				
588	0.0				
589	0.0				
590	0.003				
591	0.0				
592	0.0				
593	0.002				
594	0.002				
595	0.0				
596	0.0				
597	0.0				
598	0.0				
599	0.0				
600	0.001				
601	0.0				
602	0.001				
603	0.0				
604	0.002				
605	0.002				
606	0.001				
607	0.0				
608	0.002				
609	0.003				
610	0.0				
611	0.002				
612	0.0				
613	0.002				
614	0.0				
615	0.001				
616	0.001				
617	0.0				
618	0.006				
619	0.005				
620	0.0				
621	0.0				
622	0.0				
623	0.0				
624	0.001				
625	0.005				
626	0.002				
627	0.003				
628	0.0				
629	0.001				
630	0.002				
631	0.003				
632	0.0				
633	0.004				
634	0.002				
635	0.0				
636	0.002				
637	0.0				
638	0.0				
639	0.004				
640	0.0				
641	0.0				
642	0.0				
643	0.0				
644	0.001				
645	0.001				
646	0.001				
647	0.002				
648	0.0				
649	0.0				
650	0.001				
651	0.0				
652	0.0				
653	0.0				
654	0.0				
655	0.0				
656	0.0				
657	0.0				
658	0.0				
659	0.002				
660	0.003				
661	0.001				
662	0.002				
663	0.001				
664	0.0				
665	0.001				
666	0.001				
667	0.0				
668	0.0				
669	0.0				
670	0.001				
671	0.0				
672	0.0				
673	0.009				
674	0.004				
675	0.002				
676	0.0				
677	0.005				
678	0.0				
679	0.0				
680	0.0				
681	0.005				
682	0.002				
683	0.002				
684	0.0				
685	0.001				
686	0.001				
687	0.0				
688	0.003				
689	0.007				
690	0.006				
691	0.001				
692	0.001				
693	0.008				
694	0.003				
695	0.006				
696	0.006				
697	0.008				
698	0.008				
699	0.007				
700	0.009				
701	0.008				
702	0.015				
703	0.012				
704	0.013				
705	0.015				
706	0.012				
707	0.016				
708	0.016				
709	0.014				
710	0.014				
711	0.01				
712	0.01				
713	0.012				
714	0.009				
715	0.009				
716	0.01				
717	0.007				
718	0.005				
719	0.011				
720	0.006				
721	0.009				
722	0.006				
723	0.003				
724	0.002				
725	0.005				
726	0.001				
727	0.002				
728	0.002				
729	0.002				
730	0.0				
731	0.002				
732	0.001				
733	0.003				
734	0.002				
735	0.0				
736	0.0				
737	0.004				
738	0.002				
739	0.003				
740	0.003				
741	0.0				
742	0.002				
743	0.002				
744	0.003				
745	0.003				
746	0.002				
747	0.0				
748	0.0				
749	0.0				
750	0.006				
751	0.0				
752	0.0				
753	0.0				
754	0.0				
755	0.002				
756	0.0				
757	0.0				
758	0.004				
759	0.0				
760	0.0				
761	0.001				
762	0.003				
763	0.0				
764	0.0				
765	0.0				
766	0.0				
767	0.0				
768	0.002				
769	0.001				
770	0.003				
771	0.001				
772	0.001				
773	0.0				
774	0.0				
775	0.003				
776	0.0				
777	0.0				
778	0.002				
779	0.0				
780	0.0				
781	0.002				
782	0.0				
783	0.0				
784	0.0				
785	0.0				
786	0.001				
787	0.0				
788	0.001				
789	0.002				
790	0.0				
791	0.004				
792	0.0				
793	0.001				
794	0.0				
795	0.0				
796	0.0				
797	0.0				
798	0.0				
799	0.001				
800	0.0				
801	0.0				
802	0.001				
803	0.001				
804	0.002				
805	0.0				
806	0.0				
807	0.002				
808	0.0				
809	0.003				
810	0.0				
811	0.001				
812	0.0				
813	0.0				
814	0.0				
815	0.0				
816	0.0				
817	0.0				
818	0.0				
819	0.0				
820	0.0				
821	0.0				
822	0.0				
823	0.002				
824	0.001				
825	0.0				
826	0.0				
827	0.0				
828	0.0				
829	0.0				
830	0.0				
831	0.001				
832	0.0				
833	0.0				
834	0.0				
835	0.002				
836	0.0				
837	0.0				
838	0.0				
839	0.0				
840	0.0				
841	0.001				
842	0.0				
843	0.0				
844	0.0				
845	0.001				
846	0.0				
847	0.002				
848	0.0				
849	0.0				
850	0.0				
